% Pendulum System
% b = 0.1, l = 1, g = 9.8, m = 2.5
% x0 = [0, 0]
% t, theta, alpha, F
0.0,0.0,0.0,4
0.001,1.333298720426667e-06,0.0015999388281557163,4
0.002,4.26646421117996e-06,0.0031997875295492802,4
0.003,8.799393283704045e-06,0.004799530430426726,4
0.004,1.4931967077131052e-05,0.006399151858800221,4
0.005,2.266405106017512e-05,0.007998636144601567,4
0.006,3.199549503317996e-05,0.009597967619835666,4
0.007,4.292613313031977e-05,0.011197130618733972,4
0.008,5.5455783821953696e-05,0.012796109477907899,4
0.008999999999999998,6.958424991713365e-05,0.014394888536502209,4
0.01,8.531131856626532e-05,0.01599345213634838,4
0.011,0.0001026367612639228,0.017591784622117874,4
0.012,0.0001215603338518163,0.019189870341475505,4
0.013,0.00014208177652191302,0.020787693645232613,4
0.014,0.0001642008138197118,0.0223852388875003,4
0.015,0.00018791715464766998,0.023982490425842613,4
0.016,0.00021323049226878432,0.025579432621429657,4
0.017,0.00024014050431032466,0.027176049839190686,4
0.017999999999999995,0.00026864685276772025,0.028772326447967164,4
0.019,0.0002987491840086,0.030368246820665707,4
0.02,0.00033044712877698456,0.03196379533441112,4
0.021,0.00036374030219763246,0.03355895637069922,4
0.022,0.0003986283037805382,0.035153714315549756,4
0.023,0.0004351107174255832,0.036748053559659134,4
0.024,0.00047318711142734074,0.03834195849855324,4
0.025,0.0005128570384800314,0.03993541353274006,4
0.026,0.0005541200356826336,0.04152840306786241,4
0.027,0.0005969756245441449,0.04312091151485042,4
0.028,0.0006414233109889967,0.04471292329007411,4
0.029,0.0006874625853626206,0.04630442281549586,4
0.03,0.0007350929224371687,0.04789539451882277,4
0.031,0.0007843137814173848,0.049485822833659016,4
0.032,0.0008351246059466276,0.051075692199658115,4
0.033,0.0008875248241130494,0.05266498706267515,4
0.034,0.0009415138484559207,0.054253691874918894,4
0.035,0.000997091075972114,0.055841791095103815,4
0.036,0.001054255888122735,0.05742926918860222,4
0.037,0.0011130076508399055,0.05901611062759603,4
0.038,0.0011733457145337023,0.060602299891228686,4
0.039,0.0012352694140992438,0.062187821465756965,4
0.04,0.0012987780689239293,0.06377265984470261,4
0.041,0.0013638709828948305,0.06535679952900401,4
0.042,0.0014305474444062367,0.06694022502716769,4
0.043,0.0014988067263673453,0.06852292085541976,4
0.044,0.0015686480862101102,0.07010487153785741,4
0.045,0.0016400707658972382,0.07168606160660003,4
0.046,0.0017130739919303379,0.07326647560194052,4
0.047,0.0017876569753582183,0.07484609807249645,4
0.048,0.0018638189117853403,0.07642491357536096,4
0.049,0.0019415589813804148,0.07800290667625377,4
0.05,0.002020876348885161,0.07958006194967208,4
0.051,0.0021017701636232037,0.08115636397904127,4
0.052,0.0021842395595091323,0.08273179735686549,4
0.053,0.0022682836550576985,0.0843063466848784,4
0.054,0.002353901553393178,0.08587999657419351,4
0.055,0.0024410923422588716,0.08745273164545454,4
0.056,0.00252985509402676,0.08902453652898583,4
0.057,0.002620188865707316,0.0905953958649423,4
0.058,0.0027120926989594504,0.0921652943034596,4
0.059,0.0028055656201006244,0.09373421650480425,4
0.06,0.0029006066401171065,0.0953021471395232,4
0.061,0.00299721475467437,0.09686907088859367,4
0.062,0.003095388944127657,0.098434972443573,4
0.063,0.003195128173532677,0.0999998365067478,4
0.064,0.0032964313926564645,0.10156364779128366,4
0.065,0.003399297535988378,0.10312639102137433,4
0.066,0.003503725522751259,0.10468805093239096,4
0.067,0.0036097142569127267,0.10624861227103108,4
0.068,0.003717262627196632,0.1078080597954676,4
0.069,0.003826369507094657,0.10936637827549768,4
0.07,0.003937033754878067,0.11092355249269137,4
0.071,0.004049254213609595,0.11247956724054024,4
0.072,0.004163029711155501,0.1140344073246058,4
0.07299999999999998,0.00427835906019776,0.11558805756266798,4
0.07399999999999998,0.004395241058246397,0.11714050278487305,4
0.07499999999999998,0.0045136744876519905,0.11869172783388207,4
0.076,0.004633658115618301,0.12024171756501854,4
0.077,0.004755190694215057,0.12179045684641637,4
0.078,0.004878270960390897,0.12333793055916757,4
0.079,0.005002897635986434,0.12488412359746985,4
0.08,0.005129069427747504,0.12642902086877375,4
0.081,0.005256785027338525,0.12797260729393042,4
0.082,0.005386043111356032,0.12951486780733826,4
0.083,0.005516842341342337,0.1310557873570903,4
0.084,0.005649181363799358,0.13259535090512092,4
0.085,0.005783058810202569,0.13413354342735254,4
0.086,0.00591847329701512,0.13567034991384222,4
0.087,0.006055423425702086,0.1372057553689282,4
0.08799999999999998,0.006193907782744883,0.13873974481137602,4
0.08899999999999998,0.006333924939655801,0.1402723032745248,4
0.08999999999999998,0.006475473452992714,0.14180341580643316,4
0.091,0.006618551864373906,0.143333067470025,4
0.092,0.006763158700493072,0.1448612433432354,4
0.09300000000000003,0.006909292473134444,0.14638792851915589,4
0.094,0.007056951679188064,0.1479131081061799,4
0.095,0.007206134800665216,0.1494367672281483,4
0.096,0.007356840304713989,0.15095889102449386,4
0.097,0.007509066643634991,0.15247946465038661,4
0.098,0.007662812254897209,0.1539984732768786,4
0.099,0.007818075561154002,0.15551590209104807,4
0.1,0.007974854970259267,0.15703173629614434,4
0.101,0.00813314887528371,0.1585459611117317,4
0.102,0.008292955654531288,0.1600585617738338,4
0.103,0.008454273671555788,0.1615695235350773,4
0.104,0.008617101275177563,0.1630788316648357,4
0.105,0.008781436799500377,0.1645864714493731,4
0.106,0.00894727856392843,0.1660924281919872,4
0.107,0.009114624873183503,0.167596687213153,4
0.108,0.009283474017322255,0.16909923385066547,4
0.10900000000000001,0.009453824271753675,0.17060005345978274,4
0.11,0.009625673897256638,0.17209913141336858,4
0.111,0.009799021139997663,0.17359645310203486,4
0.112,0.009973864231548746,0.1750920039342843,4
0.113,0.0101502013889054,0.17658576933665202,4
0.114,0.010328030814504782,0.17807773475384814,4
0.115,0.010507350696243992,0.17956788564889908,4
0.116,0.010688159207498521,0.18105620750328946,4
0.117,0.01087045450714081,0.18254268581710342,4
0.118,0.011054234739558976,0.1840273061091658,4
0.119,0.011239498034675667,0.18551005391718323,4
0.12,0.011426242507967066,0.18699091479788504,4
0.121,0.011614466260482017,0.18846987432716367,4
0.122,0.011804167378861332,0.18994691810021566,4
0.123,0.011995343935357186,0.1914220317316811,4
0.12400000000000003,0.012187993987852684,0.1928952008557845,4
0.125,0.012382115579881572,0.1943664111264741,4
0.126,0.012577706740648066,0.19583564821756205,4
0.127,0.012774765485046836,0.1973028978228632,4
0.128,0.012973289813683129,0.19876814565633505,4
0.129,0.013173277712893016,0.2002313774522163,4
0.13,0.013374727154763805,0.20169257896516601,4
0.131,0.013577636097154573,0.2031517359704021,4
0.132,0.013782002483716816,0.20460883426384,4
0.133,0.013987824243915292,0.20606385966223054,4
0.134,0.014195099293048975,0.20751679800329817,4
0.135,0.014403825532272107,0.20896763514587885,4
0.13600000000000004,0.014614000848615463,0.21041635697005748,4
0.137,0.014825623115007687,0.21186294937730535,4
0.138,0.015038690190296812,0.21330739829061746,4
0.139,0.015253199919271885,0.21474968965464894,4
0.14,0.01546915013268475,0.21618980943585267,4
0.141,0.015686538647271955,0.21762774362261478,4
0.142,0.015905363265776795,0.21906347822539174,4
0.143,0.016125621776971494,0.22049699927684607,4
0.144,0.016347311955679553,0.2219282928319822,4
0.145,0.016570431562798162,0.22335734496828197,4
0.146,0.016794978345320823,0.22478414178584047,4
0.147,0.01702095003636005,0.22620866940750065,4
0.148,0.017248344355170253,0.2276309139789885,4
0.149,0.017477159007170718,0.22905086166904806,4
0.15,0.017707391683968756,0.2304684986695751,4
0.151,0.01793904006338293,0.23188381119575224,4
0.152,0.018172101809466497,0.2332967854861824,4
0.153,0.018406574572530914,0.23470740780302266,4
0.154,0.018642455989169488,0.23611566443211796,4
0.155,0.01887974368228124,0.23752154168313425,4
0.156,0.019118435261094746,0.23892502588969156,4
0.157,0.01935852832119229,0.24032610340949676,4
0.158,0.019600020444533982,0.24172476062447634,4
0.159,0.01984290919948215,0.2431209839409085,4
0.16,0.02008719214082578,0.24451475978955525,4
0.161,0.020332866809805086,0.2459060746257945,4
0.162,0.020579930734136283,0.2472949149297512,4
0.163,0.02082838142803639,0.24868126720642925,4
0.164,0.021078216392248272,0.250065117985842,4
0.165,0.02132943311406572,0.2514464538231436,4
0.166,0.021582029067358705,0.25282526129875904,4
0.167,0.021836001712598786,0.25420152701851517,4
0.168,0.022091348496884586,0.25557523761377,4
0.169,0.02234806685396745,0.25694637974154333,4
0.17,0.02260615420427721,0.25831494008464545,4
0.171,0.022865607954948065,0.2596809053518075,4
0.172,0.023126425499844658,0.26104426227780925,4
0.173,0.023388604219588195,0.26240499762360886,4
0.174,0.023652141481582716,0.2637630981764711,4
0.17499999999999996,0.02391703464004155,0.26511855075009544,4
0.17599999999999996,0.024183281036013828,0.2664713421847445,4
0.177,0.02445087799741117,0.26782145934737106,4
0.178,0.024719822839034466,0.2691688891317461,4
0.179,0.024990112862600798,0.27051361845858574,4
0.18,0.02526174535677051,0.27185563427567844,4
0.181,0.025534717597174378,0.2731949235580113,4
0.182,0.025809026846440913,0.2745314733078964,4
0.183,0.02608467035422377,0.27586527055509713,4
0.184,0.026361645357229346,0.2771963023569542,4
0.185,0.02663994907924444,0.2785245557985108,4
0.186,0.02691957873116403,0.2798500179926379,4
0.187,0.027200531511019276,0.28117267608015956,4
0.188,0.0274828046040055,0.28249251722997715,4
0.189,0.027766395182510437,0.28380952863919445,4
0.19,0.028051300406142468,0.2851236975332411,4
0.191,0.02833751742175913,0.2864350111659971,4
0.192,0.028625043363495587,0.28774345681991587,4
0.193,0.028913875352793376,0.28904902180614794,4
0.194,0.029204010498429175,0.2903516934646636,4
0.195,0.029495445896543692,0.29165145916437596,4
0.196,0.029788178630670795,0.29294830630326324,4
0.197,0.030082205771766613,0.2942422223084907,4
0.198,0.03037752437823881,0.29553319463653294,4
0.199,0.03067413149597608,0.29682121077329526,4
0.2,0.03097202415837757,0.29810625823423453,4
0.201,0.03127119938638263,0.299388324564481,4
0.202,0.03157165418850052,0.3006673973389582,4
0.203,0.031873385560840344,0.3019434641625036,4
0.204,0.03217639048714104,0.3032165126699887,4
0.205,0.03248066593880153,0.3044865305264389,4
0.206,0.032786208874910946,0.3057535054271526,4
0.207,0.03309301624227905,0.30701742509782104,4
0.208,0.033401084975466684,0.30827827729464646,4
0.209,0.03371041199681638,0.3095360498044612,4
0.21,0.03402099421648314,0.3107907304448455,4
0.211,0.03433282853246521,0.3120423070642458,4
0.212,0.034645911830635104,0.3132907675420924,4
0.213,0.03496024098477064,0.3145360997889164,4
0.214,0.03527581285658616,0.31577829174646727,4
0.215,0.03559262429576386,0.3170173313878292,4
0.216,0.03591067213998522,0.3182532067175374,4
0.217,0.036229953214962494,0.31948590577169456,4
0.218,0.03655046433447046,0.32071541661808645,4
0.219,0.03687220230037814,0.32194172735629734,4
0.22,0.037195163902680704,0.32316482611782515,4
0.221,0.037519345919531516,0.3243847010661963,4
0.222,0.0378447451172742,0.3256013403970802,4
0.223,0.03817135825047493,0.3268147323384034,4
0.224,0.038499182061954754,0.3280248651504636,4
0.225,0.03882821328282205,0.3292317271260429,4
0.226,0.039158448632505165,0.3304353065905213,4
0.227,0.03948988481878498,0.3316355919019895,4
0.228,0.039822518537827915,0.3328325714513614,4
0.229,0.040156346474218604,0.33402623366248646,4
0.23,0.040491365300993155,0.3352165669922614,4
0.231,0.04082757167967211,0.33640355993074195,4
0.232,0.041164962260293814,0.33758720100125417,4
0.233,0.041503533681447685,0.3387674787605051,4
0.234,0.04184328257030781,0.3399443817986937,4
0.235,0.0421842055426664,0.34111789873962073,4
0.236,0.04252629920296754,0.342288018240799,4
0.237,0.042869560144341,0.3434547289935626,4
0.238,0.04321398494863616,0.3446180197231766,4
0.239,0.043559570186456,0.34577787918894565,4
0.24,0.04390631241719121,0.3469342961843225,4
0.241,0.04425420818905448,0.34808725953701625,4
0.242,0.04460325403911485,0.34923675810910076,4
0.243,0.04495344649333209,0.3503827807971213,4
0.244,0.04530478206659136,0.35152531653220254,4
0.245,0.04565725726273779,0.352664354280155,4
0.246,0.04601086857461131,0.3537998830415818,4
0.247,0.04636561248408153,0.35493189185198426,4
0.248,0.04672148546208268,0.35606036978186867,4
0.249,0.047078483968648735,0.35718530593685094,4
0.25,0.047436604452948644,0.35830668945776234,4
0.251,0.04779584335332159,0.35942450952075367,4
0.252,0.048156197097312385,0.3605387553374002,4
0.253,0.04851766210170702,0.3616494161548054,4
0.254,0.048880234772568254,0.362756481255705,4
0.255,0.049243911505271354,0.3638599399585701,4
0.256,0.049608688684539895,0.3649597816177101,4
0.257,0.04997456268448168,0.3660559956233757,4
0.258,0.05034152986862481,0.36714857140186086,4
0.259,0.05070958658995375,0.3682374984156048,4
0.26,0.0510787291909456,0.3693227661632942,4
0.261,0.05144895400360647,0.3704043641799632,4
0.262,0.05182025734950774,0.3714822820370953,4
0.263,0.052192635539822806,0.37255650934272333,4
0.264,0.052566084875363614,0.3736270357415302,4
0.265,0.052940601646617375,0.3746938509149476,4
0.266,0.0533161821337834,0.3757569445812566,4
0.267,0.053692822606810096,0.37681630649568576,4
0.268,0.054070519325431915,0.3778719264505106,4
0.269,0.05444926853920653,0.378923794275151,4
0.27,0.05482906648755209,0.37997189983626994,4
0.271,0.055209909399784436,0.3810162330378707,4
0.272,0.05559179349515465,0.38205678382139424,4
0.273,0.05597471498288648,0.3830935421658157,4
0.274,0.05635867006221399,0.3841264980877412,4
0.275,0.056743654922419284,0.3851556416415037,4
0.276,0.05712966574287034,0.38618096291925896,4
0.277,0.05751669869305875,0.3872024520510806,4
0.278,0.057904749932637986,0.3882200992050551,4
0.279,0.05829381561146123,0.3892338945873766,4
0.28,0.058683891869619725,0.3902438284424409,4
0.281,0.05907497483748104,0.3912498910529392,4
0.282,0.05946706063572731,0.39225207273995205,4
0.283,0.0598601453753939,0.3932503638630416,4
0.284,0.060254225157907786,0.39424475482034493,4
0.285,0.06064929607512635,0.39523523604866634,4
0.286,0.061045354209376027,0.3962217980235689,4
0.287,0.06144239563349119,0.39720443125946586,4
0.288,0.061840416410853014,0.3981831263097125,4
0.289,0.062239412595428575,0.3991578737666964,4
0.29,0.06263938023180997,0.400128664261928,4
0.291,0.06304031535525337,0.40109548846613,4
0.292,0.06344221399171841,0.40205833708932803,4
0.293,0.06384507215790766,0.4030172008809392,4
0.294,0.06424888586130591,0.4039720706298605,4
0.295,0.0646536511002198,0.4049229371645582,4
0.296,0.06505936386381753,0.4058697913531554,4
0.297,0.06546602013216844,0.4068126241035194,4
0.298,0.06587361587628297,0.4077514263633497,4
0.299,0.06628214705815251,0.4086861891202637,4
0.3,0.06669160963078936,0.4096169034018844,4
0.301,0.06710199953826684,0.41054356027592576,4
0.302,0.0675133127157595,0.41146615085027866,4
0.303,0.0679255450895832,0.4123846662730957,4
0.304,0.06833869257723571,0.4132990977328768,4
0.305,0.06875275108743685,0.41420943645855285,4
0.306,0.06916771652016918,0.41511567371957053,4
0.307,0.06958358476671848,0.4160178008259758,4
0.308,0.07000035170971455,0.4169158091284966,4
0.309,0.07041801322317177,0.4178096900186263,4
0.31,0.07083656517253009,0.41869943492870626,4
0.311,0.07125600341469589,0.41958503533200714,4
0.312,0.07167632379808296,0.4204664827428117,4
0.313,0.07209752216265364,0.42134376871649487,4
0.314,0.07251959433995991,0.4222168848496055,4
0.315,0.07294253615318465,0.4230858227799459,4
0.316,0.07336634341718301,0.4239505741866531,4
0.317,0.07379101193852375,0.4248111307902772,4
0.318,0.07421653751553074,0.4256674843528613,4
0.319,0.07464291593832449,0.4265196266780201,4
0.32,0.07507014298886394,0.4273675496110185,4
0.321,0.0754982144409879,0.4282112450388493,4
0.322,0.07592712606045708,0.4290507048903107,4
0.323,0.07635687360499588,0.4298859211360838,4
0.324,0.07678745282433427,0.4307168857888089,4
0.325,0.07721885946024996,0.43154359090316236,4
0.326,0.07765108924661032,0.43236602857593215,4
0.327,0.07808413790941472,0.4331841909460933,4
0.328,0.07851800116683674,0.4339980701948831,4
0.329,0.07895267472926633,0.4348076585458757,4
0.33,0.07938815429935246,0.4356129482650564,4
0.331,0.0798244355720455,0.4364139316608954,4
0.332,0.08026151423463955,0.43721060108442145,4
0.333,0.0806993859668155,0.43800294892929437,4
0.334,0.0811380464406833,0.43879096763187764,4
0.335,0.08157749132082495,0.4395746496713113,4
0.336,0.08201771626433732,0.4403539875695828,4
0.337,0.08245871692087496,0.4411289738915986,4
0.338,0.08290048893269315,0.4418996012452549,4
0.339,0.08334302793469096,0.44266586228150856,4
0.34,0.08378632955445432,0.4434277496944464,4
0.341,0.08423038941229925,0.4441852562213554,4
0.342,0.0846752031213151,0.44493837464279135,4
0.343,0.08512076628740788,0.4456870977826482,4
0.344,0.08556707450934364,0.44643141850822565,4
0.345,0.08601412337879193,0.4471713297302976,4
0.346,0.08646190848036937,0.4479068244031794,4
0.347,0.08691042539168327,0.4486378955247946,4
0.348,0.08735966968337515,0.4493645361367424,4
0.349,0.08780963691916462,0.4500867393243623,4
0.35,0.0882603226558931,0.4508044982168014,4
0.351,0.08871172244356773,0.451517805987079,4
0.352,0.08916383182540531,0.4522266558521513,4
0.353,0.08961664633787612,0.4529310410729759,4
0.354,0.09007016151074826,0.4536309549545761,4
0.355,0.0905243728671315,0.4543263908461043,4
0.356,0.0909792759235216,0.4550173421409048,4
0.357,0.09143486618984464,0.4557038022765772,4
0.358,0.09189113916950103,0.4563857647350378,4
0.359,0.09234809035941023,0.4570632230425821,4
0.36,0.09280571525005499,0.4577361707699459,4
0.361,0.09326400932552573,0.4584046015323661,4
0.362,0.09372296806356538,0.4590685089896413,4
0.363,0.09418258693561382,0.4597278868461923,4
0.364,0.0946428614068525,0.4603827288511207,4
0.365,0.09510378693624937,0.4610330287982692,4
0.366,0.09556535897660338,0.4616787805262797,4
0.367,0.0960275729745897,0.4623199779186515,4
0.368,0.09649042437080414,0.4629566149037997,4
0.369,0.09695390859980864,0.4635886854551122,4
0.37,0.09741802109017594,0.4642161835910066,4
0.371,0.09788275726453474,0.4648391033749871,4
0.372,0.0983481125396149,0.4654574389157002,4
0.373,0.0988140823262926,0.4660711843669905,4
0.374,0.0992806620296355,0.466680333927956,4
0.375,0.09974784704894807,0.4672848818430026,4
0.376,0.10021563277781714,0.4678848224018983,4
0.377,0.10068401460415696,0.4684801499398277,4
0.378,0.10115298791025497,0.4690708588374446,4
0.379,0.1016225480728171,0.4696569435209257,4
0.38,0.10209269046301354,0.4702383984620223,4
0.381,0.10256341044652414,0.4708152181781127,4
0.382,0.10303470338358423,0.4713873972322545,4
0.383,0.10350656462903024,0.4719549302332346,4
0.384,0.10397898953234563,0.4725178118356204,4
0.385,0.10445197343770657,0.4730760367398103,4
0.386,0.10492551168402776,0.4736295996920833,4
0.387,0.10539959960500858,0.4741784954846483,4
0.388,0.10587423252917885,0.4747227189556929,4
0.389,0.10634940577994492,0.475262264989432,4
0.39,0.10682511467563581,0.4757971285161559,4
0.391,0.10730135452954914,0.4763273045122777,4
0.392,0.10777812064999752,0.4768527880003801,4
0.393,0.10825540834035459,0.4773735740492628,4
0.394,0.10873321289910141,0.4778896577739878,4
0.395,0.10921152961987252,0.4784010343359256,4
0.396,0.10969035379150259,0.4789076989428006,4
0.397,0.11016968069807268,0.4794096468487351,4
0.398,0.11064950561895656,0.4799068733542949,4
0.399,0.11112982382886738,0.4803993738065321,4
0.4,0.11161063059790408,0.4808871435990291,4
0.401,0.11209192119159796,0.4813701781719415,4
0.402,0.11257369087095939,0.4818484730120402,4
0.403,0.11305593489252433,0.482322023652754,4
0.404,0.11353864850840102,0.4827908256742115,4
0.405,0.1140218269663169,0.483254874703281,4
0.406,0.11450546550966517,0.4837141664136119,4
0.407,0.1149895593775517,0.4841686965256756,4
0.408,0.11547410380484192,0.4846184608068044,4
0.409,0.11595909402220758,0.4850634550712306,4
0.41,0.11644452525617385,0.485503675180126,4
